Potential (V),Current Density (mA/cm2)
0.05, -12.50
0.04, -10.10
0.03, -8.05
0.02, -5.23
0.01, -2.10
0.00, -0.50
-0.01, 1.25
-0.02, 3.40
-0.03, 6.70
-0.04, 10.50
-0.05, 14.80
-0.06, 18.20
-0.07, 21.00
-0.08, 23.50
-0.09, 25.10
-0.10, 26.00
